# x [m]   rho [kg/m^3]   velocity [m/s]   pressure [Pa]   accel [m/s^2]   energy [J/kg]   du_dt [J/(kg·s)]   h [m]
0.934708 0.313113 -0.893219 24358.362694 0.098119 116713.514280 0.347525 0.007385
0.934868 0.315865 -0.894606 24098.765373 0.104918 114461.079780 0.304419 0.007305
0.935066 0.319531 -0.893410 23907.771383 0.173498 112256.236488 0.376854 0.007348
0.935221 0.322268 -0.893790 23574.611423 0.226384 109752.265564 0.375034 0.007270
0.935465 0.326635 -0.895747 23384.358021 0.207663 107408.346164 0.325905 0.007165
0.935737 0.331583 -0.893679 23239.325002 0.330421 105156.353455 0.427563 0.007239
0.935964 0.335674 -0.894329 22903.624449 0.410505 102374.511690 0.422523 0.007125
0.936353 0.342559 -0.893702 22857.703344 0.487088 100119.334859 0.470830 0.007150
0.936677 0.348340 -0.895041 22624.699412 0.608185 97453.755940 0.452428 0.006989
0.937213 0.357278 -0.894254 22705.639826 0.724956 95359.312021 0.495780 0.007046
0.937870 0.367725 -0.894490 22899.368877 0.825727 93441.672372 0.504185 0.007039
0.938569 0.378199 -0.895172 23091.320427 0.975020 91615.435150 0.492910 0.006967
0.939361 0.389099 -0.894970 23303.017498 0.962419 89865.648271 0.490220 0.006859
0.940138 0.398287 -0.894438 23361.794153 0.919366 88012.722727 0.457242 0.006897
0.940712 0.404690 -0.893789 23396.189842 0.947881 86746.841592 0.438453 0.006763
0.941103 0.408616 -0.894066 23421.438859 0.996245 86004.335533 0.406060 0.006690
0.941405 0.411423 -0.895016 23540.683468 1.086727 85850.074224 0.368910 0.006642
0.941637 0.413460 -0.896382 23799.591204 1.233329 86364.143534 0.332879 0.006614
0.941788 0.414815 -0.898282 24206.000456 1.418628 87549.909874 0.302724 0.006543
0.941890 0.415705 -0.899524 24458.697835 1.510756 88273.130761 0.283358 0.006493
0.942038 0.416941 -0.900768 24871.666353 1.504789 89495.730868 0.261923 0.006439
0.942141 0.417705 -0.901854 25304.195473 1.602081 90884.200962 0.243947 0.006450
0.942309 0.419051 -0.903238 25616.948436 1.650468 91710.168824 0.218788 0.006366
0.942411 0.419846 -0.904047 25861.200303 1.671792 92408.382022 0.204173 0.006315
0.942644 0.421452 -0.904360 26027.385532 1.654981 92646.040235 0.178790 0.006279
0.942850 0.422878 -0.905043 26126.981689 1.658454 92685.317178 0.153062 0.006176
0.943097 0.424459 -0.905384 26198.641039 1.612815 92591.621631 0.124127 0.006053
0.943518 0.426726 -0.905442 26235.677957 1.524306 92226.732837 0.074917 0.005913
0.944041 0.428938 -0.904561 26216.701850 1.275278 91681.024770 0.015631 0.005747
0.944774 0.430783 -0.898562 26130.285539 0.707323 90982.970772 -0.056357 0.005480
0.945490 0.431873 -0.894450 26016.979367 -0.076804 90355.828430 -0.117530 0.005381
0.946113 0.433548 -0.895298 25912.645189 -0.277468 89642.941806 -0.161274 0.005523
0.946672 0.435229 -0.896632 25704.334558 -0.369678 88576.641602 -0.195108 0.005726
0.947147 0.436355 -0.897390 25487.309163 -0.453379 87600.309522 -0.221866 0.005841
0.947529 0.437102 -0.898179 25348.393836 -0.527568 86972.502000 -0.242754 0.005896
0.947822 0.437636 -0.899032 25325.451836 -0.588455 86786.667635 -0.258591 0.005929
0.948054 0.438068 -0.899733 25435.489866 -0.624603 87077.052086 -0.271400 0.005959
0.948246 0.438320 -0.900506 25574.634108 -0.670363 87502.323050 -0.283042 0.005946
0.948433 0.438604 -0.901148 25813.387459 -0.689924 88261.444848 -0.294520 0.005948
0.948593 0.438868 -0.901382 26056.906401 -0.711714 89040.052472 -0.303900 0.005958
0.948750 0.439051 -0.901787 26320.957795 -0.730402 89904.586276 -0.313986 0.005939
0.948904 0.439092 -0.902341 26533.130613 -0.765302 90620.313148 -0.324457 0.005862
0.949084 0.439406 -0.902114 26718.320299 -0.767864 91187.119491 -0.332271 0.005888
0.949299 0.439456 -0.901970 26838.500913 -0.790202 91586.314235 -0.342969 0.005780
0.949479 0.439695 -0.901679 26943.079303 -0.791210 91892.845638 -0.349559 0.005783
0.949761 0.439713 -0.900569 26961.639720 -0.765780 91951.731963 -0.360325 0.005642
0.950214 0.439835 -0.898670 26898.117033 -0.617056 91708.693017 -0.374418 0.005505
0.950654 0.439792 -0.896758 26804.077456 -0.375288 91395.979954 -0.387961 0.005371
0.951305 0.439536 -0.895204 26640.269151 -0.114837 90889.298696 -0.404267 0.005212
0.951976 0.439647 -0.894946 26479.451290 -0.114979 90317.857462 -0.399912 0.005169
0.952502 0.440478 -0.894662 26360.752187 -0.135045 89745.102901 -0.370649 0.005274
0.953080 0.441638 -0.894822 26201.058817 -0.175245 88969.844988 -0.323849 0.005469
0.953532 0.442390 -0.895059 26079.104748 -0.191333 88407.485313 -0.286651 0.005612
0.953931 0.443079 -0.895173 25950.596006 -0.191622 87837.045006 -0.252555 0.005760
0.954238 0.443338 -0.895330 25907.069169 -0.198081 87639.997481 -0.229937 0.005797
0.954483 0.443513 -0.895456 25942.405491 -0.199717 87725.964543 -0.212074 0.005817
0.954688 0.443652 -0.895454 26028.598739 -0.212395 87990.792243 -0.197168 0.005831
0.954875 0.443906 -0.895431 26166.376651 -0.184598 88407.021511 -0.183460 0.005889
0.955041 0.443798 -0.895489 26313.883925 -0.198213 88927.725778 -0.172044 0.005826
0.955202 0.443915 -0.895440 26475.461506 -0.179222 89450.970565 -0.160399 0.005842
0.955344 0.443899 -0.895382 26620.162093 -0.170663 89943.857622 -0.149961 0.005815
0.955535 0.443784 -0.895170 26744.991548 -0.154081 90390.042757 -0.134703 0.005747
0.955734 0.443842 -0.895031 26849.987167 -0.112947 90734.083583 -0.119270 0.005741
0.955940 0.443616 -0.894519 26935.986993 -0.061310 91072.322351 -0.100962 0.005638
0.956252 0.443542 -0.894337 26955.601260 -0.012854 91155.490896 -0.075162 0.005584
0.956617 0.443307 -0.893990 26919.549677 0.054471 91083.866227 -0.044231 0.005484
0.957117 0.442761 -0.893769 26825.451802 0.136444 90879.983628 -0.002829 0.005319
0.957819 0.442030 -0.894789 26646.409032 0.150758 90425.535701 0.043330 0.005151
0.958452 0.442269 -0.895420 26504.665660 0.160458 89897.623413 0.069094 0.005167
0.959022 0.443020 -0.895395 26380.424449 0.194272 89325.758059 0.087733 0.005283
0.959507 0.443542 -0.895421 26257.318798 0.230124 88805.395558 0.104036 0.005379
0.959973 0.444204 -0.895448 26149.816906 0.247804 88311.053706 0.120449 0.005534
0.960329 0.444550 -0.895564 26070.557360 0.254678 87975.712250 0.133166 0.005623
0.960628 0.444721 -0.895680 26034.590089 0.264130 87821.200534 0.143870 0.005665
0.960860 0.444966 -0.895515 26052.389448 0.271452 87833.542899 0.152745 0.005738
0.961045 0.445114 -0.895493 26102.051997 0.295889 87972.182148 0.160043 0.005783
0.961224 0.445082 -0.895497 26179.721907 0.295449 88240.726001 0.167038 0.005768
0.961397 0.445231 -0.895449 26290.684592 0.315245 88585.486304 0.174473 0.005818
0.961565 0.445079 -0.895450 26396.488775 0.322725 88972.607307 0.181329 0.005763
0.961729 0.445065 -0.895408 26503.210191 0.333022 89335.651211 0.188382 0.005757
0.961903 0.444997 -0.895363 26604.600392 0.356364 89691.591938 0.195883 0.005734
0.962120 0.444985 -0.895354 26700.083585 0.359371 90016.332867 0.205285 0.005733
0.962370 0.444630 -0.895071 26749.216764 0.421276 90254.639424 0.215838 0.005618
0.962658 0.444460 -0.895042 26779.430049 0.445497 90391.978234 0.228298 0.005575
0.963050 0.444070 -0.895000 26751.536711 0.479595 90378.295710 0.245423 0.005479
0.963652 0.443138 -0.895241 26619.841490 0.465529 90124.133392 0.272843 0.005286
0.964332 0.442591 -0.896510 26469.429558 0.493193 89727.716337 0.301933 0.005200
0.964952 0.442363 -0.897450 26318.018350 0.516627 89262.050493 0.327420 0.005162
0.965465 0.443062 -0.897551 26229.245420 0.544010 88822.223079 0.351518 0.005295
0.965910 0.443302 -0.897717 26131.231883 0.528307 88444.194974 0.376255 0.005354
0.966351 0.443812 -0.897704 26054.343447 0.581093 88084.566314 0.407374 0.005503
0.966692 0.444037 -0.897767 25992.141482 0.572647 87831.546489 0.433189 0.005589
0.966974 0.444295 -0.897739 25970.477935 0.611906 87709.033181 0.457396 0.005694
0.967217 0.444370 -0.897845 25971.234326 0.649575 87698.027733 0.478249 0.005741
0.967420 0.444312 -0.897936 25996.906905 0.663281 87797.238424 0.495743 0.005740
0.967586 0.444480 -0.897924 26059.987016 0.687700 87978.085629 0.513551 0.005820
0.967754 0.444239 -0.897998 26117.442323 0.702442 88220.718472 0.527960 0.005751
0.967934 0.444324 -0.898078 26208.645033 0.729977 88513.037991 0.548080 0.005806
0.968121 0.444108 -0.898099 26283.761904 0.746844 88810.989269 0.566465 0.005752
0.968321 0.444058 -0.898274 26363.687953 0.793253 89092.461789 0.588558 0.005764
0.968532 0.443810 -0.898255 26413.253605 0.797538 89311.110681 0.610438 0.005708
0.968785 0.443555 -0.898437 26450.062731 0.871391 89488.607149 0.637947 0.005661
0.969132 0.443187 -0.898635 26453.379854 0.924903 89576.508609 0.676491 0.005600
0.969587 0.442489 -0.898912 26393.878297 1.003548 89519.354436 0.728611 0.005474
0.970159 0.441512 -0.899581 26272.586131 1.049065 89309.750286 0.798187 0.005326
0.970757 0.440577 -0.900947 26117.885098 1.158438 88977.258974 0.873036 0.005214
0.971334 0.440394 -0.902132 25990.157567 1.242674 88583.664181 0.944427 0.005237
0.971891 0.440535 -0.902718 25862.695953 1.302647 88126.191627 1.021906 0.005334
0.972335 0.440746 -0.902962 25774.370551 1.355067 87788.178416 1.096254 0.005469
0.972760 0.440756 -0.903434 25673.980965 1.395744 87449.639774 1.173677 0.005577
0.973091 0.440764 -0.903881 25616.516343 1.483569 87256.571891 1.239154 0.005681
0.973371 0.440645 -0.904357 25575.543663 1.541120 87144.282786 1.294899 0.005734
0.973606 0.440438 -0.904782 25551.541362 1.586950 87106.453382 1.341829 0.005743
0.973808 0.440465 -0.905110 25568.845476 1.651479 87162.858201 1.387745 0.005835
0.974008 0.440211 -0.905445 25588.313846 1.698108 87282.171042 1.430441 0.005819
0.974192 0.440088 -0.905837 25632.659005 1.771735 87460.362998 1.472895 0.005851
0.974366 0.439894 -0.906133 25680.237915 1.800512 87663.798401 1.513511 0.005854
0.974552 0.439650 -0.906603 25721.702334 1.899589 87856.497715 1.557047 0.005846
0.974766 0.439421 -0.907068 25761.922652 1.919436 88042.783044 1.606962 0.005858
0.975000 0.438869 -0.907534 25772.162422 2.053869 88191.821934 1.662067 0.005765
0.975276 0.438483 -0.908320 25779.020159 2.140656 88296.914535 1.725884 0.005757
0.975628 0.437666 -0.909023 25734.537172 2.203955 88314.425060 1.809343 0.005648
0.976071 0.436734 -0.910482 25649.406825 2.376246 88216.864886 1.911272 0.005560
0.976616 0.435373 -0.912528 25501.628668 2.653798 87991.058142 2.036550 0.005418
0.977255 0.433943 -0.915315 25302.949212 2.895659 87601.910864 2.162890 0.005308
0.977870 0.433203 -0.917802 25134.013294 3.167246 87171.511491 2.244157 0.005327
0.978363 0.432773 -0.919321 24999.218236 3.344892 86793.925982 2.295749 0.005389
0.978853 0.432560 -0.920441 24870.487413 3.498625 86393.382247 2.344214 0.005550
0.979225 0.432191 -0.921521 24772.691432 3.629414 86130.398719 2.388376 0.005646
0.979546 0.431778 -0.922601 24691.680507 3.743793 85933.721788 2.428517 0.005712
0.979849 0.431347 -0.923676 24624.762863 3.842357 85789.185767 2.467637 0.005771
0.980108 0.431135 -0.924634 24593.828077 3.951839 85726.025161 2.502767 0.005893
0.980332 0.430699 -0.925522 24570.779433 4.034960 85734.360271 2.534232 0.005900
0.980535 0.430362 -0.926374 24568.576987 4.122184 85795.541186 2.563868 0.005933
0.980710 0.430071 -0.927108 24582.870378 4.180302 85905.139205 2.590699 0.005962
0.980905 0.429581 -0.927895 24589.999456 4.268822 86029.682150 2.621476 0.005933
0.981110 0.429288 -0.928932 24609.015346 4.331469 86156.723997 2.651480 0.005989
0.981328 0.428591 -0.929727 24605.320461 4.433735 86285.805527 2.686837 0.005906
0.981565 0.428192 -0.931096 24605.274037 4.522601 86367.886766 2.718490 0.005950
0.981853 0.427250 -0.932213 24558.382640 4.606831 86396.021854 2.761252 0.005847
0.982218 0.426141 -0.934020 24475.288103 4.761886 86331.099558 2.810557 0.005758
0.982691 0.424795 -0.936679 24345.121425 4.911779 86147.830281 2.863838 0.005679
0.983277 0.423088 -0.940223 24167.018883 5.133731 85866.641256 2.916008 0.005573
0.983914 0.421262 -0.944294 23950.228649 5.353972 85467.785998 2.944734 0.005463
0.984490 0.420081 -0.947621 23776.630050 5.467069 85086.113409 2.920610 0.005442
0.985055 0.419402 -0.950054 23627.404625 5.492689 84685.675981 2.853706 0.005523
0.985477 0.419015 -0.951419 23525.479260 5.470213 84395.273254 2.796652 0.005643
0.985894 0.418541 -0.952887 23430.141408 5.429668 84145.751072 2.746144 0.005764
0.986244 0.418047 -0.954285 23352.916425 5.381279 83965.321519 2.705643 0.005846
0.986530 0.417570 -0.955562 23298.713902 5.357762 83864.166449 2.672756 0.005888
0.986791 0.417363 -0.956755 23274.052319 5.363315 83814.855237 2.638864 0.006012
0.987035 0.416877 -0.957957 23244.457502 5.377176 83803.987107 2.609436 0.006017
0.987245 0.416528 -0.958984 23236.246392 5.374020 83842.805426 2.582222 0.006046
0.987452 0.416230 -0.960091 23238.295533 5.381771 83908.300836 2.553187 0.006088
0.987662 0.415649 -0.961004 23230.865548 5.392951 83996.897784 2.528608 0.006033
0.987870 0.415428 -0.962070 23245.793101 5.268638 84093.079512 2.492701 0.006097
0.988079 0.414728 -0.962932 23233.520120 5.321466 84188.918412 2.469279 0.006004
0.988332 0.414307 -0.963951 23226.139360 5.003142 84244.467417 2.421173 0.006026
0.988639 0.413686 -0.965181 23192.819276 4.583904 84245.905347 2.359206 0.006011
0.989031 0.412521 -0.965870 23111.017118 3.682815 84181.391265 2.286416 0.005888
0.989548 0.411402 -0.966329 23009.830783 1.662483 84032.660643 2.155271 0.005820
0.990155 0.409760 -0.969346 22860.419212 0.583817 83812.100400 1.999831 0.005651
0.990807 0.409107 -0.975390 22761.710214 1.312471 83565.355474 1.710874 0.005631
0.991390 0.408705 -0.980384 22689.468679 1.913924 83361.816866 1.391788 0.005600
0.991954 0.408965 -0.983647 22662.639283 2.113214 83184.493279 0.983825 0.005661
0.992400 0.409342 -0.985278 22660.212175 2.048885 83076.141427 0.623081 0.005747
0.992771 0.409670 -0.986470 22667.306893 1.996746 83015.950221 0.315216 0.005830
0.993139 0.409955 -0.987700 22679.178868 1.929921 82982.650296 0.013129 0.005906
0.993464 0.410192 -0.988878 22697.928253 1.879341 82986.481112 -0.248992 0.005968
0.993733 0.410571 -0.989897 22734.930587 1.934139 83031.436038 -0.461527 0.006084
0.993967 0.410550 -0.990835 22759.232864 1.799555 83112.865554 -0.645300 0.006057
0.994197 0.410638 -0.991698 22796.378063 1.706482 83219.273901 -0.824507 0.006067
0.994423 0.410805 -0.992198 22842.872164 1.546278 83344.144851 -0.996966 0.006103
0.994636 0.410647 -0.992259 22874.805759 1.369392 83481.528776 -1.176586 0.006020
0.994839 0.410864 -0.991965 22930.637005 1.049894 83631.747271 -1.323970 0.006074
0.995077 0.410619 -0.990929 22959.574480 0.796840 83774.257166 -1.532833 0.005960
0.995342 0.410760 -0.988776 23005.086593 0.185626 83899.288246 -1.726088 0.005978
0.995641 0.410492 -0.984496 23023.551336 -0.163798 84005.716398 -1.977076 0.005864
0.996009 0.410330 -0.976005 23036.695674 -0.700348 84069.558082 -2.248434 0.005785
0.996477 0.410220 -0.962056 23038.700735 -1.392657 84080.719355 -2.542217 0.005711
0.997051 0.410137 -0.946899 23025.930624 -4.084823 84033.500316 -2.821061 0.005614
0.997690 0.410765 -0.943522 23056.969895 -7.230332 84005.195394 -3.023347 0.005580
0.998307 0.412024 -0.948031 23130.827917 -8.337717 84005.150093 -3.205524 0.005583
0.998842 0.413844 -0.952853 23249.561281 -8.289051 84055.218832 -3.362516 0.005654
0.999337 0.415718 -0.955665 23385.120928 -8.253366 84154.807183 -3.513520 0.005733
0.999727 0.417348 -0.957700 23509.623198 -8.009535 84264.379942 -3.645451 0.005824
0.000065 0.418610 -0.959146 23619.113425 -7.928602 84394.614918 -3.760044 0.005866
0.000384 0.419704 -0.960606 23722.282066 -7.911071 84535.925588 -3.868044 0.005872
0.000680 0.420879 -0.962165 23835.513593 -7.627292 84695.468590 -3.981414 0.005921
0.000945 0.421903 -0.963314 23945.111441 -7.430206 84872.341853 -4.084834 0.005957
0.001187 0.422503 -0.964295 24035.299119 -7.538483 85066.607827 -4.165166 0.005855
0.001408 0.423409 -0.964733 24147.379835 -7.277522 85274.981233 -4.261361 0.005909
0.001610 0.423914 -0.964578 24238.782615 -7.294807 85491.814016 -4.334682 0.005808
0.001833 0.424750 -0.963679 24352.597025 -7.211008 85718.722613 -4.430695 0.005839
0.002069 0.425358 -0.961868 24453.781588 -7.144626 85946.693369 -4.523737 0.005731
0.002316 0.426204 -0.959087 24567.213963 -7.164886 86168.236455 -4.627188 0.005748
0.002590 0.426810 -0.954124 24661.820720 -6.748279 86370.492063 -4.743546 0.005611
0.002902 0.427670 -0.945184 24764.426134 -6.532817 86548.640387 -4.859491 0.005586
0.003277 0.428538 -0.931582 24858.947611 -6.039864 86695.066072 -4.994290 0.005521
0.003721 0.429562 -0.916446 24954.718676 -5.882586 86813.040370 -5.135939 0.005475
0.004268 0.430688 -0.897698 25044.818060 -6.549611 86890.214320 -5.274121 0.005402
0.004897 0.432546 -0.889770 25178.460541 -9.416579 86974.361886 -5.346666 0.005400
0.005401 0.434489 -0.891595 25324.199360 -10.205819 87083.817662 -5.397218 0.005439
0.005905 0.436912 -0.894604 25505.848069 -10.311827 87220.206536 -5.435381 0.005533
0.006330 0.438835 -0.897219 25666.746438 -10.263681 87383.521490 -5.479897 0.005577
0.006676 0.440480 -0.899199 25811.779476 -10.137841 87547.462432 -5.516911 0.005621
0.006997 0.442087 -0.900581 25958.015811 -10.003116 87721.711677 -5.553216 0.005676
0.007299 0.443294 -0.902039 26083.651161 -10.109432 87905.288445 -5.582712 0.005645
0.007579 0.444350 -0.904241 26205.152812 -10.113013 88103.993903 -5.608103 0.005579
0.007829 0.445652 -0.905577 26344.144087 -9.747498 88310.381109 -5.654430 0.005625
0.008058 0.446427 -0.906352 26454.450829 -9.962857 88526.669143 -5.662345 0.005510
0.008279 0.447577 -0.906823 26591.817074 -9.625364 88755.361024 -5.714804 0.005554
0.008508 0.448411 -0.906421 26712.238662 -9.662773 88991.344201 -5.729367 0.005439
0.008733 0.449509 -0.905339 26850.748681 -9.497672 89231.882631 -5.785487 0.005471
0.008959 0.450331 -0.903169 26970.886821 -9.350524 89466.758289 -5.811924 0.005358
0.009201 0.451395 -0.899672 27103.094705 -9.292252 89690.771943 -5.868381 0.005373
0.009473 0.452408 -0.894097 27226.949824 -8.895734 89896.391940 -5.921087 0.005315
0.009785 0.453410 -0.884151 27343.853354 -8.084464 90079.527169 -5.983277 0.005224
0.010149 0.454681 -0.871301 27471.159324 -7.700883 90242.440498 -6.051526 0.005211
0.010585 0.455994 -0.854764 27594.822262 -7.380486 90383.087022 -6.132160 0.005159
0.011119 0.457619 -0.836573 27732.713940 -7.967931 90508.447521 -6.198874 0.005115
0.011606 0.459410 -0.830645 27882.456855 -9.903715 90640.991338 -6.230560 0.005114
0.012087 0.461621 -0.830424 28063.151235 -11.113926 90791.590281 -6.239949 0.005157
0.012523 0.463946 -0.832652 28256.218110 -11.360839 90958.089787 -6.251016 0.005227
0.012897 0.466008 -0.834650 28437.726943 -11.299842 91137.009906 -6.266548 0.005290
0.013225 0.467692 -0.836337 28598.156250 -11.241279 91320.711536 -6.285772 0.005318
0.013531 0.469163 -0.837988 28748.097807 -11.245655 91511.450021 -6.303495 0.005315
0.013813 0.470382 -0.839941 28885.303505 -11.278147 91709.994845 -6.315429 0.005268
0.014074 0.471703 -0.841918 29032.418204 -11.059420 91918.692565 -6.334172 0.005259
0.014319 0.473109 -0.842449 29185.859691 -10.879370 92129.218345 -6.358689 0.005295
0.014560 0.474019 -0.843502 29312.436758 -11.111563 92352.691482 -6.349856 0.005175
0.014787 0.475322 -0.843889 29466.619049 -10.767169 92582.459565 -6.389157 0.005209
0.015009 0.476234 -0.843432 29596.074094 -10.798089 92812.391932 -6.386201 0.005098
0.015223 0.477411 -0.842118 29742.048555 -10.627518 93038.431419 -6.429988 0.005132
0.015449 0.478337 -0.839750 29870.144602 -10.419518 93258.425751 -6.441705 0.005024
0.015698 0.479536 -0.835727 30014.881186 -10.253257 93474.202839 -6.485740 0.005028
0.015973 0.480777 -0.829642 30157.709762 -9.884611 93674.620473 -6.529164 0.005017
0.016278 0.482000 -0.820384 30294.166678 -9.242840 93857.905484 -6.573274 0.004974
0.016633 0.483276 -0.807270 30429.612608 -8.603484 94025.824738 -6.627367 0.004918
0.017060 0.484802 -0.790684 30575.845599 -8.340640 94177.745038 -6.679402 0.004881
0.017485 0.486228 -0.780262 30717.473217 -8.395941 94332.753239 -6.747868 0.004837
0.017919 0.488153 -0.772174 30887.557280 -9.848020 94481.808623 -6.748192 0.004859
