# x [m]   rho [kg/m^3]   velocity [m/s]   pressure [Pa]   accel [m/s^2]   energy [J/kg]   du_dt [J/(kg·s)]   h [m]
0.962343 0.314058 -0.907051 24467.866476 4.362797 116907.666176 0.700301 0.007371
0.962498 0.316690 -0.908214 24189.503056 4.613937 114612.908446 0.617707 0.007309
0.962701 0.320332 -0.906707 23995.972241 4.314250 112406.192156 0.651012 0.007329
0.962889 0.323548 -0.907979 23721.171368 4.459956 110009.786696 0.567259 0.007235
0.963105 0.327354 -0.907588 23457.147612 4.462795 107519.961067 0.546773 0.007214
0.963372 0.332067 -0.906506 23286.974773 4.118187 105226.296284 0.553499 0.007215
0.963641 0.336749 -0.909303 23019.928037 4.400233 102565.110059 0.412104 0.007080
0.963985 0.342713 -0.907681 22870.346052 3.978278 100127.029714 0.428081 0.007125
0.964354 0.349064 -0.910525 22703.122719 4.060835 97578.714201 0.294396 0.006994
0.964861 0.357440 -0.911793 22725.469713 3.856342 95381.022744 0.209755 0.007015
0.965496 0.367417 -0.913074 22876.153321 3.363870 93401.343086 0.128929 0.007039
0.966200 0.377998 -0.915679 23081.692300 2.863455 91596.127265 0.025392 0.006951
0.966930 0.388088 -0.914497 23217.548731 2.002658 89739.263096 0.015149 0.006880
0.967630 0.396823 -0.909667 23221.336962 1.095753 87781.697671 0.070812 0.006831
0.968152 0.402658 -0.906419 23213.377983 0.577797 86481.866610 0.100663 0.006824
0.968529 0.406711 -0.905450 23249.064133 0.331008 85751.430274 0.093715 0.006734
0.968843 0.409866 -0.905468 23398.380646 0.119969 85636.803461 0.077319 0.006653
0.969119 0.412412 -0.906456 23705.878699 -0.073235 86225.211789 0.055701 0.006622
0.969326 0.414351 -0.908498 24167.665786 -0.224759 87491.038602 0.020512 0.006533
0.969462 0.415456 -0.909119 24444.963880 -0.272475 88259.118659 0.013611 0.006548
0.969652 0.417140 -0.910902 24898.841582 -0.426384 89533.251909 -0.014708 0.006453
0.969791 0.418253 -0.912155 25364.994563 -0.435602 90965.712400 -0.029304 0.006434
0.969996 0.419886 -0.912899 25707.080962 -0.538645 91833.307640 -0.039724 0.006368
0.970122 0.420879 -0.913576 25970.711116 -0.595989 92555.579302 -0.049596 0.006305
0.970359 0.422534 -0.913476 26141.028013 -0.594616 92798.017438 -0.044262 0.006271
0.970578 0.424076 -0.913533 26250.909711 -0.628298 92849.088356 -0.046738 0.006162
0.970822 0.425560 -0.913024 26315.392094 -0.584717 92753.321271 -0.034589 0.006114
0.971231 0.427877 -0.912101 26351.949218 -0.494808 92380.063425 -0.022559 0.005909
0.971713 0.429957 -0.910406 26316.958653 -0.253867 91813.528387 0.015012 0.005767
0.972338 0.431750 -0.907904 26215.744360 0.186080 91084.438047 0.076741 0.005559
0.972961 0.432476 -0.905469 26070.072592 0.620047 90431.345634 0.155434 0.005353
0.973599 0.433985 -0.905247 25932.907021 0.611813 89653.592170 0.322420 0.005551
0.974179 0.435035 -0.905859 25656.476635 0.680211 88495.662799 0.502971 0.005739
0.974671 0.435628 -0.906591 25382.181584 0.804961 87440.647925 0.660041 0.005851
0.975070 0.436024 -0.907196 25199.743707 0.876831 86742.255330 0.795984 0.005950
0.975376 0.436218 -0.907720 25137.146876 0.937509 86495.338498 0.903478 0.006002
0.975618 0.436228 -0.908199 25206.081623 0.989590 86736.047116 0.989731 0.005989
0.975826 0.436401 -0.908614 25325.391391 1.055514 87117.401430 1.078046 0.006070
0.976018 0.436287 -0.909049 25524.249664 1.101858 87828.601269 1.155336 0.006017
0.976189 0.436390 -0.909417 25742.938756 1.158630 88564.840640 1.236223 0.006080
0.976349 0.436203 -0.909773 25968.921651 1.217330 89384.487820 1.307098 0.006000
0.976511 0.436312 -0.910137 26169.236056 1.271722 90055.874455 1.387601 0.006079
0.976692 0.436073 -0.910575 26303.564767 1.374925 90572.478363 1.468447 0.005989
0.976908 0.436012 -0.911085 26395.775124 1.456088 90908.518087 1.566548 0.006006
0.977085 0.435738 -0.911467 26451.986885 1.594360 91164.321253 1.647660 0.005917
0.977359 0.435487 -0.912117 26427.157793 1.732918 91139.072325 1.768546 0.005881
0.977802 0.434852 -0.913262 26275.843201 2.006752 90762.389488 1.963078 0.005757
0.978235 0.434112 -0.914484 26098.707171 2.271732 90317.095420 2.154792 0.005636
0.978890 0.432539 -0.916568 25794.280521 2.758435 89608.338608 2.452995 0.005401
0.979574 0.431403 -0.918813 25499.695058 3.184529 88836.084255 2.710779 0.005365
0.980102 0.430572 -0.920167 25235.025555 3.489043 88096.351045 2.887788 0.005388
0.980691 0.429789 -0.921887 24901.187999 3.723932 87103.831760 3.081782 0.005520
0.981159 0.429127 -0.923827 24643.016324 3.919794 86346.262804 3.250748 0.005684
0.981574 0.428342 -0.926053 24381.540727 4.143307 85597.660236 3.395253 0.005789
0.981894 0.427739 -0.927940 24249.036285 4.339334 85260.567885 3.509496 0.005886
0.982150 0.427242 -0.929582 24209.702392 4.513324 85227.413603 3.604231 0.005964
0.982363 0.426758 -0.930947 24226.471412 4.646361 85388.146069 3.687580 0.006002
0.982558 0.426227 -0.932214 24283.992669 4.794831 85702.041491 3.771302 0.006003
0.982732 0.425930 -0.933608 24386.634758 4.921649 86127.668716 3.842750 0.006077
0.982901 0.425448 -0.934807 24479.521205 5.058201 86557.328688 3.919288 0.006072
0.983050 0.425144 -0.936074 24577.341508 5.171345 86967.912102 3.978886 0.006114
0.983248 0.424519 -0.937532 24635.078762 5.322768 87304.695808 4.060317 0.006087
0.983456 0.424005 -0.939370 24671.001777 5.501256 87541.629855 4.125805 0.006112
0.983667 0.423186 -0.940789 24684.319032 5.659053 87763.133879 4.213063 0.006036
0.983995 0.422177 -0.943618 24601.619334 5.933169 87683.876205 4.295951 0.006009
0.984378 0.420849 -0.946896 24450.166454 6.250634 87425.428501 4.383020 0.005934
0.984910 0.418726 -0.951607 24194.930410 6.702745 86960.464957 4.501493 0.005763
0.985683 0.415857 -0.959597 23808.749374 7.614080 86168.657807 4.553661 0.005573
0.986373 0.413892 -0.966292 23493.981137 8.513140 85425.593333 4.393996 0.005498
0.986970 0.412741 -0.970840 23241.025012 9.371865 84722.203966 4.058203 0.005541
0.987475 0.411888 -0.973457 23023.896212 9.712919 84082.196453 3.679514 0.005643
0.987966 0.410972 -0.976114 22806.721687 10.054457 83451.976990 3.295585 0.005767
0.988348 0.410303 -0.978307 22651.007755 10.310123 82999.494302 2.996452 0.005905
0.988670 0.409658 -0.980347 22548.395931 10.441513 82739.046728 2.761220 0.005989
0.988920 0.409051 -0.982147 22498.381351 10.604618 82667.166380 2.588635 0.006006
0.989121 0.408788 -0.983762 22503.172873 10.734848 82729.058203 2.451418 0.006103
0.989316 0.408330 -0.985448 22531.878697 10.872625 82919.110178 2.325504 0.006116
0.989508 0.407976 -0.987045 22586.679773 10.891921 83184.585854 2.201593 0.006157
0.989693 0.407560 -0.988518 22649.315322 10.873698 83492.081388 2.081259 0.006167
0.989874 0.407130 -0.989609 22706.358098 10.712035 83782.493330 1.956976 0.006166
0.990065 0.406569 -0.990852 22751.898846 10.606997 84057.265670 1.823126 0.006132
0.990306 0.405972 -0.991839 22786.002385 10.115276 84295.336398 1.644637 0.006116
0.990579 0.405424 -0.992371 22795.859992 9.146663 84432.194988 1.434146 0.006122
0.990892 0.404280 -0.991342 22747.230177 7.938772 84473.733233 1.171137 0.006001
0.991315 0.402890 -0.986511 22639.458555 5.189511 84340.655008 0.810751 0.005876
0.991971 0.401412 -0.974445 22459.956863 -0.751116 83949.418494 0.327452 0.005773
0.992762 0.399827 -0.970800 22250.754809 -7.059193 83467.172027 -0.145949 0.005594
0.993499 0.400396 -0.979256 22204.355984 -9.627502 83138.114137 -0.719242 0.005568
0.994079 0.402398 -0.987100 22287.135571 -9.179519 82992.955980 -1.346096 0.005673
0.994563 0.404154 -0.991676 22375.483836 -8.878990 82923.659107 -1.912713 0.005757
0.995044 0.406227 -0.995529 22488.211207 -8.047587 82876.380734 -2.535997 0.005898
0.995422 0.407715 -0.998289 22572.561775 -7.523488 82852.925574 -3.019204 0.005983
0.995739 0.408903 -1.000934 22661.842181 -6.997896 82913.243043 -3.423189 0.006036
0.996013 0.409729 -1.003088 22752.595905 -6.826490 83056.232730 -3.763134 0.006009
0.996245 0.410563 -1.005065 22864.243562 -6.413041 83275.419845 -4.068873 0.006025
0.996436 0.411230 -1.006639 22982.678273 -6.122729 83555.623206 -4.325283 0.006029
0.996627 0.411874 -1.007469 23116.440080 -6.015815 83895.089358 -4.586336 0.006021
0.996830 0.412444 -1.007490 23263.145099 -6.075116 84294.330230 -4.867742 0.005960
0.997038 0.413196 -1.006536 23424.571276 -6.257874 84707.933595 -5.156803 0.005976
0.997255 0.413727 -1.004480 23571.018290 -6.467515 85109.708362 -5.472147 0.005868
0.997478 0.414525 -1.001197 23724.304281 -6.922059 85480.934874 -5.768595 0.005896
0.997732 0.415095 -0.995486 23856.354943 -6.882278 85816.581388 -6.139598 0.005769
0.998052 0.416010 -0.985387 23998.430990 -7.068717 86113.379515 -6.544633 0.005736
0.998440 0.416914 -0.968894 24112.960151 -6.808399 86307.567205 -7.019801 0.005646
0.998921 0.417755 -0.944493 24192.979220 -6.370890 86384.791708 -7.574155 0.005513
0.999500 0.418999 -0.916750 24267.398427 -7.258909 86363.132611 -8.047341 0.005430
0.000159 0.421364 -0.897648 24405.526605 -12.082160 86353.101702 -8.271440 0.005421
0.000816 0.425039 -0.893187 24641.863793 -16.629445 86432.616801 -8.322544 0.005491
0.001328 0.428950 -0.896425 24918.107736 -17.718123 86600.504232 -8.403853 0.005632
0.001822 0.431923 -0.901691 25142.986856 -18.379187 86772.258678 -8.551948 0.005622
0.002206 0.434714 -0.905758 25366.291523 -18.260322 86974.349988 -8.673615 0.005657
0.002538 0.437032 -0.910365 25569.293731 -17.909654 87199.411613 -8.792913 0.005649
0.002822 0.439267 -0.915237 25776.172241 -16.900377 87450.073672 -8.937787 0.005682
0.003067 0.440708 -0.918602 25948.704703 -17.245981 87746.475547 -8.985096 0.005560
0.003304 0.442687 -0.921476 26176.095121 -16.359955 88112.085276 -9.141379 0.005604
0.003517 0.444132 -0.923488 26382.649559 -16.424990 88517.289407 -9.203519 0.005498
0.003708 0.445609 -0.923903 26595.826853 -16.136955 88932.708755 -9.310266 0.005473
0.003904 0.447129 -0.923454 26819.136630 -15.852037 89369.519419 -9.435574 0.005461
0.004113 0.448669 -0.921469 27046.685512 -15.793885 89816.537560 -9.513428 0.005356
0.004330 0.450310 -0.918324 27284.967352 -15.641042 90269.565664 -9.686926 0.005386
0.004560 0.451939 -0.913381 27516.677341 -15.207585 90703.820261 -9.799765 0.005271
0.004817 0.453704 -0.905710 27748.506070 -14.986400 91103.692484 -9.977645 0.005266
0.005102 0.455557 -0.894674 27969.350345 -14.463265 91446.293092 -10.155705 0.005241
0.005433 0.457519 -0.878107 28180.157119 -13.351554 91729.858289 -10.353866 0.005183
0.005854 0.459586 -0.852785 28377.003895 -11.692939 91938.132558 -10.647631 0.005068
0.006402 0.462672 -0.823258 28621.132463 -12.069236 92098.107885 -10.864401 0.005078
0.006917 0.465581 -0.804702 28852.461778 -13.244707 92252.446366 -11.039148 0.005066
0.007461 0.469306 -0.791751 29136.151472 -17.375784 92422.235862 -11.023322 0.005103
0.007901 0.472855 -0.790628 29423.361088 -19.547108 92635.102085 -11.012596 0.005165
0.008294 0.475541 -0.793379 29664.150302 -20.738406 92863.602923 -11.073201 0.005131
0.008670 0.478477 -0.798094 29928.601815 -21.131671 93115.796620 -11.114170 0.005115
0.008991 0.481317 -0.802583 30196.694634 -20.850525 93394.855106 -11.158728 0.005126
0.009271 0.483929 -0.805747 30459.268301 -20.474928 93697.620417 -11.208732 0.005147
0.009523 0.485717 -0.809743 30681.532520 -21.031002 94037.978784 -11.187211 0.005020
0.009732 0.487885 -0.813390 30938.615186 -19.786998 94399.943540 -11.300510 0.005064
0.009948 0.489656 -0.815191 31180.079183 -20.089728 94797.047436 -11.278558 0.004957
0.010157 0.491770 -0.815970 31455.683228 -19.344126 95219.597306 -11.395528 0.004993
0.010360 0.493564 -0.815908 31715.133196 -19.323256 95659.302817 -11.396711 0.004891
0.010559 0.495439 -0.814118 31977.562172 -19.044984 96084.076145 -11.476719 0.004872
0.010767 0.497324 -0.811154 32241.094685 -18.744790 96507.438833 -11.545587 0.004822
0.010985 0.499273 -0.806589 32500.839679 -18.473220 96900.363677 -11.669649 0.004829
0.011221 0.501206 -0.799744 32750.448172 -17.539398 97265.954248 -11.745749 0.004719
0.011485 0.503282 -0.789733 33004.018124 -16.757105 97607.805607 -11.895822 0.004701
0.011797 0.505520 -0.774406 33258.951954 -15.326690 97917.392095 -12.073581 0.004654
0.012184 0.508323 -0.753862 33544.408959 -14.864897 98204.486071 -12.248790 0.004673
0.012608 0.511180 -0.729245 33809.996670 -14.487124 98420.225063 -12.410156 0.004652
0.013011 0.514007 -0.713528 34072.323192 -14.806183 98631.544628 -12.545904 0.004651
0.013436 0.517190 -0.697904 34353.775598 -16.222406 98833.815769 -12.578071 0.004661
0.013836 0.520097 -0.690232 34626.055900 -19.051431 99060.908499 -12.597669 0.004641
0.014186 0.523376 -0.689115 34928.423638 -20.892336 99304.449565 -12.557656 0.004685
0.014513 0.526389 -0.690632 35223.261372 -21.849106 99571.429057 -12.559529 0.004705
0.014825 0.529192 -0.693465 35512.487744 -22.371246 99858.528148 -12.577958 0.004696
0.015102 0.531387 -0.697923 35768.504940 -22.699278 100164.420956 -12.593226 0.004624
0.015349 0.533665 -0.702393 36040.346787 -22.505242 100496.450831 -12.610416 0.004582
0.015584 0.536168 -0.704031 36332.402392 -22.176320 100838.829665 -12.636631 0.004591
0.015800 0.538074 -0.707277 36595.367108 -22.273770 101213.647307 -12.607620 0.004493
0.015990 0.540249 -0.708645 36879.419730 -21.367506 101585.395698 -12.705179 0.004528
0.016189 0.542130 -0.708874 37147.935212 -21.428487 101975.471697 -12.669616 0.004428
0.016392 0.544332 -0.707488 37442.291997 -20.903040 102364.294115 -12.771736 0.004453
0.016602 0.546340 -0.705002 37724.217923 -20.632263 102759.370594 -12.768422 0.004351
0.016819 0.548515 -0.701221 38019.478968 -20.197171 103148.182771 -12.891025 0.004361
0.017050 0.550726 -0.695761 38311.604572 -19.732671 103518.717494 -13.012091 0.004362
0.017302 0.552933 -0.687489 38595.166095 -18.826004 103864.302218 -13.124558 0.004316
0.017589 0.555376 -0.673669 38888.621278 -17.726326 104188.601746 -13.244635 0.004299
0.017905 0.557843 -0.656272 39173.228456 -16.612084 104480.390946 -13.386307 0.004262
0.018231 0.560370 -0.639904 39446.162431 -16.111008 104727.211329 -13.524855 0.004249
0.018556 0.562907 -0.627459 39718.849035 -16.102477 104969.620192 -13.654965 0.004246
0.018900 0.565876 -0.613131 40009.809488 -16.712504 105184.643697 -13.671069 0.004270
0.019244 0.568448 -0.601948 40279.128339 -17.341578 105411.896247 -13.726936 0.004238
0.019564 0.571716 -0.595474 40600.185577 -19.233510 105652.041467 -13.640649 0.004289
0.019861 0.574274 -0.593058 40880.684584 -21.005463 105911.253735 -13.624487 0.004272
0.020142 0.576811 -0.593062 41165.775595 -22.436704 106184.869620 -13.595049 0.004252
0.020410 0.579420 -0.594522 41462.584968 -23.308147 106473.220162 -13.564250 0.004241
0.020659 0.582003 -0.596968 41762.831379 -23.491526 106771.301928 -13.555008 0.004237
0.020887 0.583832 -0.601185 42019.991721 -23.929406 107097.010698 -13.520605 0.004140
0.021106 0.586295 -0.603492 42331.056612 -23.458860 107438.305262 -13.535926 0.004138
0.021320 0.588792 -0.604186 42647.529619 -23.042012 107783.342871 -13.566847 0.004150
0.021529 0.590733 -0.605321 42931.035583 -23.254314 108150.149757 -13.505610 0.004047
0.021734 0.593113 -0.605490 43254.055905 -22.454885 108524.068598 -13.593076 0.004060
0.021941 0.595392 -0.603966 43564.938785 -22.043149 108884.137849 -13.660132 0.004053
0.022154 0.597493 -0.601370 43862.126361 -21.621560 109242.473375 -13.690259 0.003984
0.022375 0.599751 -0.596952 44170.911264 -21.091201 109593.931250 -13.788673 0.003966
0.022610 0.602077 -0.589351 44479.882029 -20.332955 109930.124307 -13.893850 0.003958
0.022857 0.604388 -0.579113 44779.577136 -19.255228 110243.217800 -14.004899 0.003942
0.023117 0.606658 -0.567478 45067.449497 -18.197356 110530.549425 -14.139544 0.003917
0.023387 0.608951 -0.555675 45349.650495 -17.450017 110796.412086 -14.291036 0.003902
0.023663 0.611551 -0.545062 45650.090506 -17.472741 111051.647597 -14.396637 0.003932
0.023944 0.613854 -0.534528 45923.419347 -17.324673 111290.924993 -14.530748 0.003914
0.024232 0.616421 -0.523858 46207.851411 -17.717453 111511.953679 -14.589723 0.003920
0.024514 0.619175 -0.515898 46512.381897 -18.420115 111748.633815 -14.604631 0.003941
0.024785 0.621418 -0.510388 46783.706888 -19.151235 111993.673036 -14.655608 0.003912
0.025046 0.623715 -0.506824 47062.531291 -20.130398 112247.732235 -14.663505 0.003889
0.025298 0.626094 -0.504877 47353.006637 -21.277756 112514.918235 -14.641775 0.003871
0.025540 0.628546 -0.504300 47655.956682 -22.413185 112797.522026 -14.608638 0.003859
0.025774 0.631044 -0.504577 47969.573001 -23.276398 113094.516309 -14.580529 0.003851
0.025999 0.633560 -0.505242 48290.959221 -23.795814 113403.547952 -14.567712 0.003847
0.026218 0.635959 -0.505901 48608.812457 -24.159207 113722.261399 -14.562594 0.003831
0.026429 0.637978 -0.507472 48904.023904 -24.559506 114054.548555 -14.545092 0.003764
0.026634 0.640307 -0.508396 49227.471440 -24.301165 114391.827707 -14.581882 0.003746
0.026839 0.642750 -0.507628 49559.634688 -23.951460 114724.773690 -14.641712 0.003750
0.027048 0.645127 -0.505427 49886.610912 -23.733037 115055.524065 -14.695915 0.003742
0.027260 0.647342 -0.501636 50201.455353 -23.182724 115385.559939 -14.735400 0.003700
0.027478 0.649604 -0.496454 50519.666272 -22.391548 115710.769230 -14.805291 0.003668
0.027701 0.651899 -0.489937 50837.586003 -21.516742 116025.357675 -14.903528 0.003645
0.027930 0.654239 -0.482371 51154.080653 -20.707066 116325.018685 -15.023463 0.003636
0.028165 0.656638 -0.474247 51469.754767 -20.091712 116609.475777 -15.152179 0.003639
0.028404 0.659095 -0.465916 51786.164392 -19.708737 116883.389579 -15.276719 0.003649
0.028647 0.661571 -0.457662 52100.543012 -19.526582 117147.707138 -15.391222 0.003660
0.028892 0.663776 -0.449207 52388.418485 -19.311959 117397.472874 -15.521314 0.003636
0.029138 0.665956 -0.441428 52671.100640 -19.358642 117639.214806 -15.638989 0.003612
0.029381 0.668385 -0.434744 52972.315747 -19.765702 117879.735671 -15.705651 0.003614
0.029621 0.670904 -0.429417 53283.598789 -20.327505 118126.833811 -15.746312 0.003623
0.029855 0.673329 -0.425392 53592.231337 -20.952011 118382.989763 -15.782160 0.003622
0.030083 0.675680 -0.422393 53899.533530 -21.636907 118648.088278 -15.809743 0.003613
0.030308 0.677963 -0.420238 54205.752498 -22.363665 118921.538945 -15.828254 0.003595
0.030527 0.680191 -0.418814 54512.438067 -23.094496 119204.277691 -15.839056 0.003570
0.030741 0.682388 -0.417929 54821.869133 -23.776853 119496.977324 -15.844721 0.003539
0.030951 0.684565 -0.417338 55134.634983 -24.361246 119798.865312 -15.848619 0.003503
0.031158 0.686987 -0.416539 55471.454572 -24.596672 120107.132345 -15.869663 0.003494
0.031363 0.689448 -0.415145 55814.335807 -24.629787 120418.633575 -15.903507 0.003491
0.031568 0.691901 -0.413096 56158.682289 -24.521223 120731.756420 -15.948980 0.003487
0.031773 0.694340 -0.410355 56503.066242 -24.298575 121044.355711 -16.006602 0.003482
0.031979 0.696696 -0.406856 56840.734436 -23.997863 121354.439234 -16.070834 0.003467
0.032187 0.698999 -0.402600 57174.080930 -23.598999 121661.609090 -16.147720 0.003445
0.032397 0.701330 -0.397635 57508.516321 -23.133235 121962.924366 -16.244501 0.003428
0.032610 0.703688 -0.392057 57843.441740 -22.668686 122257.483968 -16.358347 0.003418
0.032824 0.706069 -0.386071 58177.998994 -22.264968 122544.344048 -16.484854 0.003413
0.033041 0.708470 -0.379867 58511.501696 -21.963150 122823.136318 -16.618226 0.003411
0.033258 0.710836 -0.373561 58839.615954 -21.756759 123094.351438 -16.755592 0.003407
0.033476 0.713089 -0.367345 59155.936159 -21.627351 123358.341678 -16.899829 0.003392
0.033694 0.715326 -0.361428 59469.619115 -21.646647 123617.810517 -17.042550 0.003376
0.033911 0.717561 -0.355949 59782.898370 -21.823287 123875.685334 -17.178940 0.003360
0.034126 0.719804 -0.351037 60097.895953 -22.148663 124134.545221 -17.305352 0.003345
0.034340 0.722068 -0.346748 60416.750289 -22.596380 124396.919124 -17.420192 0.003331
0.034551 0.724362 -0.343072 60741.331341 -23.126625 124664.957716 -17.524188 0.003318
0.034759 0.726691 -0.339939 61073.373262 -23.693214 124941.054711 -17.620252 0.003305
0.034965 0.729057 -0.337215 61412.905704 -24.251607 125224.672672 -17.711822 0.003294
